id;time;x_odom;y_odom;fr_odom;travelled_path;global_plan_length;global_plan_fr
1;46.484000000;13.5001;0.000158965;5.87219;5.97397e-05;25.613
2;46.684000000;13.4942;9.86744e-05;3.89138;0.00588571;25.6368
3;46.885000000;13.4765;-0.00116628;5.23725;0.0236759;25.6423
4;47.084000000;13.4516;-0.00654885;6.52232;0.049225;25.5946
5;47.284000000;13.4282;-0.0180688;7.7298;0.0753781;25.6242
6;47.484000000;13.3975;-0.0484162;8.23766;0.118803;25.5838
7;47.684000000;13.3828;-0.0782256;8.69451;0.152109;25.5904
8;47.884000000;13.3798;-0.0966771;9.14263;0.17088;25.5707
9;48.089000000;13.3788;-0.0911733;9.93386;0.179404;25.5862
10;48.284000000;13.3714;-0.071214;10.1992;0.200725;25.6325
11;48.484000000;13.3525;-0.0461467;10.2619;0.23225;25.6382
12;48.684000000;13.3266;-0.0278586;10.2444;0.264071;25.6258
13;48.884000000;13.3017;-0.0194846;10.0493;0.290474;25.6193
14;49.084000000;13.2659;-0.0136891;9.2168;0.326731;25.6572
15;49.284000000;13.2293;-0.00560479;8.62821;0.364175;25.586
16;49.484000000;13.2003;0.00389105;8.07449;0.394706;25.5628
17;49.684000000;13.1717;0.0135636;7.53858;0.424957;25.5472
18;49.884000000;13.1376;0.0258283;6.98796;0.461203;25.5803
19;50.084000000;13.098;0.0399998;6.42958;0.503181;25.5174
20;50.291000000;13.064;0.0521552;6.02686;0.539342;25.5329
21;50.484000000;13.0303;0.0650357;5.6805;0.575441;25.5014
22;50.684000000;12.9968;0.0780376;5.35921;0.611392;25.4525
23;50.884000000;12.9631;0.0907171;5.07731;0.647354;25.4023
24;51.084000000;12.9294;0.103034;4.82461;0.683205;25.3635
25;51.284000000;12.8911;0.115837;4.68206;0.723608;25.0232
26;51.484000000;12.864;0.120432;4.73887;0.751202;24.9731
27;51.684000000;12.8287;0.120862;12.6245;0.786508;24.9731
28;51.884000000;12.7985;0.119705;12.1855;0.816656;24.9232
29;52.084000000;12.7564;0.119246;11.6145;0.858831;24.8731
30;52.284000000;12.7203;0.11884;11.1531;0.894921;24.8232
31;52.489000000;12.6844;0.118473;10.7281;0.930848;24.8232
32;52.684000000;12.6484;0.118078;10.3332;0.966822;24.7731
33;52.884000000;12.6123;0.11769;9.96366;1.00288;24.7232
34;53.084000000;12.5706;0.117093;9.56887;1.04464;24.7232
35;53.284000000;12.5405;0.116678;9.3053;1.07472;24.6731
36;53.485000000;12.5106;0.116266;9.05653;1.10459;24.6232
37;53.684000000;12.4687;0.115681;8.72809;1.14656;24.5731
38;53.884000000;12.4326;0.115294;8.46696;1.18259;24.5731
39;54.084000000;12.3966;0.114841;8.21721;1.21864;24.5232
40;54.284000000;12.3609;0.114462;7.98661;1.25435;24.4731
41;54.484000000;12.3249;0.114115;7.76591;1.29038;24.4731
42;54.684000000;12.2888;0.11373;7.55596;1.32643;24.4232
43;54.884000000;12.253;0.113357;7.35836;1.36225;24.3731
44;55.084000000;12.2109;0.112926;7.14259;1.40431;24.3232
45;55.284000000;12.1807;0.112772;6.99597;1.43452;24.3232
46;55.484000000;12.1509;0.112599;6.85523;1.46435;24.2731
47;55.684000000;12.1149;0.112282;6.69387;1.50038;24.2232
48;55.884000000;12.0728;0.111811;6.51192;1.54249;24.2232
49;56.084000000;12.0369;0.111401;6.36447;1.57836;24.1732
50;56.284000000;12.0008;0.110985;6.22238;1.61446;24.1232
51;56.484000000;11.9648;0.11065;6.08953;1.6504;24.0731
52;56.684000000;11.923;0.110273;5.9414;1.69227;24.0731
53;56.885000000;11.8929;0.110042;5.83995;1.72238;24.0232
54;57.084000000;11.8631;0.109821;5.74267;1.75219;23.9732
55;57.284000000;11.8211;0.109417;5.61008;1.79419;23.9732
56;57.486000000;11.7851;0.109041;5.50245;1.83019;23.9232
57;57.684000000;11.7493;0.108642;5.39886;1.86599;23.8731
58;57.885000000;11.7133;0.108335;5.29971;1.90198;23.8232
59;58.084000000;11.6772;0.108095;5.20169;1.93806;23.8232
60;58.285000000;11.6414;0.10779;5.1089;1.97384;23.7732
61;58.484000000;11.5994;0.107541;5.00461;2.01583;23.7232
62;58.684000000;11.5755;0.107381;4.94592;2.03981;23.7232
63;58.885000000;11.5396;0.107279;4.86291;2.07571;23.6732
64;59.084000000;11.4975;0.107346;7.73721;2.11778;23.6232
65;59.284000000;11.4616;0.107313;10.5273;2.15369;23.5732
66;59.484000000;11.4257;0.107213;10.3557;2.18952;23.5732
67;59.684000000;11.3897;0.107228;13.0117;2.22561;23.5232
68;59.885000000;11.3537;0.107322;12.8062;2.26158;23.4732
69;60.084000000;11.3179;0.107384;15.3426;2.2974;23.4232
70;60.284000000;11.2819;0.107399;17.8006;2.33338;23.4232
71;60.484000000;11.246;0.107421;22.8358;2.36924;23.3732
72;60.684000000;11.2101;0.107538;22.4966;2.40514;23.3232
73;60.884000000;11.168;0.107685;22.1115;2.44722;23.3232
74;61.084000000;11.1321;0.107823;21.7934;2.48312;23.2732
75;61.285000000;11.0962;0.107973;21.484;2.51909;23.2232
76;61.484000000;11.0661;0.108206;21.2335;2.54914;23.1732
77;61.684000000;11.0304;0.108584;20.9413;2.58489;23.1732
78;61.884000000;11.0006;0.108786;20.7036;2.61469;23.1232
79;62.084000000;10.9645;0.109012;20.4223;2.65077;23.0732
80;62.284000000;10.9285;0.109323;20.1504;2.68679;23.0732
81;62.485000000;10.8805;0.10961;19.7984;2.73479;23.0232
82;62.684000000;10.8503;0.109737;19.5832;2.76493;22.9732
83;62.884000000;10.8146;0.109941;19.3343;2.80065;22.9233
84;63.084000000;10.7786;0.110171;19.0901;2.83664;22.9233
85;63.284000000;10.7426;0.11042;18.8518;2.87264;22.8732
86;63.484000000;10.7068;0.110622;18.6201;2.90851;22.8233
87;63.685000000;10.6708;0.110791;18.395;2.94446;22.8233
88;63.885000000;10.6353;0.110801;20.2867;2.98002;22.7732
89;64.084000000;10.5936;0.110096;20.0126;3.02172;22.7233
90;64.284000000;10.5575;0.109158;19.7808;3.05777;22.7233
91;64.484000000;10.5209;0.109218;21.5857;3.09445;22.6732
92;64.684000000;10.4852;0.110624;21.3574;3.13017;22.6233
93;64.884000000;10.455;0.110187;23.1432;3.16037;22.5732
94;65.084000000;10.4169;0.110745;24.851;3.19846;22.5732
95;65.284000000;10.3796;0.116557;24.6227;3.23628;22.5233
96;65.484000000;10.344;0.129157;24.3771;3.27409;22.4736
97;65.684000000;10.3166;0.139514;24.1831;3.30338;22.4725
98;65.885000000;10.2859;0.146322;24.0229;3.33488;22.4243
99;66.084000000;10.2466;0.143893;25.6647;3.37438;22.377
100;66.284000000;10.213;0.134308;25.4362;3.40939;22.3603
101;66.484000000;10.1807;0.121281;25.2148;3.44422;22.3272
102;66.684000000;10.1508;0.106236;24.9817;3.47765;22.2817
103;66.884000000;10.1178;0.0909275;24.7602;3.5141;22.2581
104;67.084000000;10.089;0.0837721;24.6112;3.54383;22.2297
105;67.284000000;10.0547;0.0831172;26.1746;3.5782;22.235
106;67.484000000;10.036;0.0861427;26.0884;3.59712;22.1917
107;67.684000000;10.021;0.0910602;25.9975;3.61291;22.2297
108;67.885000000;10.0149;0.0933761;25.9429;3.62152;22.2524
109;68.084000000;10.029;0.0889092;25.8679;3.6363;22.3128
110;68.284000000;10.0464;0.086001;25.7849;3.65394;22.3463
111;68.485000000;10.0722;0.0851234;27.3331;3.67979;22.4151
112;68.685000000;10.1037;0.0870825;27.1225;3.71133;23.4932
113;68.884000000;10.1409;0.0904883;26.8659;3.74871;23.5245
114;69.085000000;10.1788;0.0979332;26.6321;3.78732;23.561
115;69.284000000;10.2037;0.105992;26.4635;3.8135;23.5557
116;69.485000000;10.2238;0.112555;26.324;3.83468;23.583
117;69.684000000;10.2623;0.124421;26.0612;3.87499;23.5671
118;69.884000000;10.2978;0.134245;25.8215;3.91183;23.6329
119;70.084000000;10.3326;0.145676;25.6059;3.94846;23.7132
120;70.284000000;10.3664;0.160503;25.386;3.98535;23.431
121;70.484000000;10.3937;0.174247;25.2069;4.01591;23.5576
122;70.684000000;10.4197;0.189994;25.0416;4.04635;23.5713
123;70.885000000;10.448;0.211497;24.849;4.08189;23.519
124;71.084000000;10.4789;0.237288;24.6274;4.12217;23.6122
125;71.284000000;10.5035;0.253237;24.4869;4.15152;23.4569
126;71.484000000;10.518;0.260164;24.4297;4.16754;23.5495
127;71.684000000;10.5123;0.258844;24.4324;4.17388;23.5883
128;71.884000000;10.4967;0.257335;24.3836;4.18952;23.5691
129;72.084000000;10.4749;0.259519;25.7786;4.21152;23.3878
130;72.286000000;10.4523;0.264987;25.6528;4.23474;23.1946
131;72.484000000;10.4272;0.270823;25.5126;4.26047;23.0051
132;72.684000000;10.3946;0.274496;25.358;4.29336;22.9465
133;72.884000000;10.3613;0.272002;26.639;4.3268;22.879
134;73.085000000;10.3334;0.266513;26.479;4.3552;22.7472
135;73.284000000;10.3004;0.258425;26.2831;4.38924;22.7187
136;73.484000000;10.2667;0.248596;26.0834;4.42436;22.5865
137;73.684000000;10.24;0.240143;25.9237;4.45235;22.508
138;73.884000000;10.1934;0.227875;25.6656;4.50051;22.4468
139;74.085000000;10.164;0.222029;25.5021;4.53048;22.321
140;74.285000000;10.1285;0.215986;25.3141;4.56653;22.2701
141;74.484000000;10.0913;0.213546;25.1326;4.60382;22.221
142;74.684000000;10.0551;0.213809;26.2938;4.64003;22.221
143;74.884000000;10.0194;0.214376;26.0948;4.67575;22.1701
144;75.085000000;9.98337;0.214611;25.8967;4.71177;22.121
145;75.284000000;9.94745;0.21473;25.7011;4.7477;22.0702
146;75.485000000;9.90549;0.214934;25.4763;4.78965;22.0702
147;75.684000000;9.87541;0.215078;25.3176;4.81974;22.021
148;75.884000000;9.83956;0.215175;25.131;4.85558;21.9702
149;76.084000000;9.80969;0.215261;24.9775;4.88545;21.9702
150;76.284000000;9.76753;0.215345;24.7642;4.92762;21.921
151;76.484000000;9.73164;0.215376;24.5852;4.9635;21.8702
152;76.685000000;9.69561;0.215431;24.4082;4.99954;21.8211
153;76.884000000;9.65959;0.215446;25.4817;5.03555;21.8211
154;77.085000000;9.62373;0.215396;25.3016;5.07142;21.7702
155;77.284000000;9.58766;0.215386;26.3533;5.10748;21.7211
156;77.484000000;9.55167;0.215374;27.3906;5.14347;21.7211
157;77.685000000;9.50986;0.215328;27.1698;5.18529;21.6702
158;77.887000000;9.47377;0.215286;26.9821;5.22137;21.6211
159;78.084000000;9.44376;0.215209;26.8284;5.25139;21.5703
160;78.284000000;9.40786;0.215089;26.6465;5.28728;21.5703
161;78.484000000;9.37178;0.214986;26.4666;5.32336;21.5212
162;78.685000000;9.33585;0.214711;26.29;5.35929;21.4703
163;78.884000000;9.30605;0.214458;26.145;5.38909;21.4703
164;79.084000000;9.26383;0.214198;25.9421;5.43132;21.4212
165;79.284000000;9.22798;0.213888;25.7727;5.46716;21.3704
166;79.484000000;9.19203;0.213515;25.6047;5.50312;21.3213
167;79.684000000;9.15594;0.213162;25.4384;5.53921;21.3213
168;79.884000000;9.12006;0.212657;25.2753;5.57509;21.2704
169;80.084000000;9.08408;0.212157;25.1136;5.61108;21.2213
170;80.285000000;9.048;0.211697;24.9538;5.64716;21.1705
171;80.484000000;9.00616;0.210988;24.7708;5.68901;21.1705
172;80.685000000;8.97608;0.210495;24.6407;5.71909;21.1214
173;80.884000000;8.94005;0.209815;24.4878;5.75513;21.0705
174;81.085000000;8.91024;0.208987;24.3626;5.78495;21.0214
175;81.284000000;8.86812;0.207839;24.1878;5.82709;21.0214
176;81.484000000;8.83211;0.206449;24.0413;5.86312;20.9706
177;81.684000000;8.79629;0.204801;23.896;5.89898;20.9215
178;81.884000000;8.76029;0.203171;23.7522;5.93502;20.9098
179;82.084000000;8.72509;0.201224;23.6144;5.97027;20.8596
180;82.284000000;8.68314;0.199678;23.4536;6.01225;20.8098
181;82.486000000;8.65916;0.199025;23.3612;6.03624;20.7596
182;82.685000000;8.61118;0.197225;23.1791;6.08425;20.7596
183;82.884000000;8.58125;0.195884;23.0659;6.11421;20.7099
184;83.084000000;8.5452;0.19421;22.9309;6.1503;20.6597
185;83.284000000;8.50937;0.192354;22.7991;6.18618;20.6597
186;83.484000000;8.47343;0.19042;22.6693;6.22217;20.6157
187;83.685000000;8.43717;0.188623;22.5443;6.25848;20.5697
188;83.886000000;8.40199;0.184702;22.4275;6.29389;20.5374
189;84.084000000;8.36636;0.179796;22.3041;6.32985;20.516
190;84.284000000;8.33009;0.175977;22.1815;6.36633;20.4841
191;84.487000000;8.28828;0.172662;22.0391;6.40827;20.4163
192;84.684000000;8.25227;0.170131;21.9188;6.44437;20.4163
193;84.884000000;8.22004;0.169549;21.8178;6.4766;20.3843
194;85.087000000;8.1829;0.168249;21.7078;6.51378;20.338
195;85.284000000;8.15435;0.163838;21.6276;6.54268;20.2707
196;85.484000000;8.11299;0.154675;21.4924;6.58505;20.2853
197;85.684000000;8.07797;0.147373;21.3803;6.62082;20.2259
198;85.884000000;8.04253;0.14073;21.2657;6.65688;20.1909
199;86.084000000;8.00765;0.134034;21.1554;6.6924;20.175
200;86.284000000;7.97293;0.126337;21.0486;6.72796;20.14
201;86.484000000;7.93183;0.116752;20.9238;6.77016;20.1066
202;86.684000000;7.90389;0.111367;20.8406;6.79862;20.0888
203;86.884000000;7.86469;0.102257;20.7257;6.83887;20.1372
204;87.084000000;7.84226;0.0965687;20.6601;6.86201;20.1091
205;87.284000000;7.80884;0.0860199;20.5652;6.89707;20.1215
206;87.486000000;7.77055;0.0702212;20.4577;6.93851;20.179
207;87.684000000;7.73986;0.054658;20.3637;6.97292;20.1825
208;87.885000000;7.70709;0.0390104;20.2633;7.00923;20.1434
209;88.084000000;7.67603;0.0233399;20.1708;7.04403;19.8975
210;88.287000000;7.64544;0.00694303;20.0729;7.07873;19.8006
211;88.484000000;7.60832;-0.0127255;19.9571;7.12075;19.7947
212;88.684000000;7.57681;-0.0279807;19.869;7.15576;19.75
213;88.885000000;7.542;-0.0414425;19.7787;7.1931;19.6855
214;89.084000000;7.50693;-0.0514723;19.6896;7.22958;19.6009
215;89.284000000;7.4771;-0.0578686;19.6151;7.26009;19.6187
216;89.484000000;7.44084;-0.0635229;19.5235;7.2968;19.9268
217;89.684000000;7.41077;-0.067223;19.4453;7.32709;19.5156
218;89.884000000;7.36869;-0.0713708;19.3376;7.36938;19.5156
219;90.084000000;7.33282;-0.0737393;19.2488;7.40532;19.4465
220;90.285000000;7.29717;-0.0749928;19.1585;7.441;19.4631
221;90.484000000;7.261;-0.0758573;19.0685;7.47718;19.3631
222;90.684000000;7.22446;-0.0762937;18.9789;7.51373;19.3466
223;90.884000000;7.18827;-0.0774816;18.8899;7.54993;19.3466
224;91.084000000;7.152;-0.0779558;18.8033;7.58621;19.313
225;91.284000000;7.11607;-0.0782413;18.716;7.62214;19.213
226;91.485000000;7.07958;-0.0787117;18.6284;7.65864;19.213
227;91.686000000;7.03814;-0.0794502;18.533;7.70009;19.1466
228;91.884000000;7.00807;-0.0793298;19.275;7.73015;19.0964
229;92.084000000;6.97894;-0.079062;19.2038;7.75929;19.0964
230;92.284000000;6.93153;-0.0796433;19.8957;7.8067;19.0631
231;92.484000000;6.90211;-0.0803626;19.8237;7.83613;19.0467
232;92.684000000;6.86684;-0.0803424;21.3313;7.8714;19.0126
233;92.884000000;6.83125;-0.0809254;21.2378;7.90699;19.5218
234;93.084000000;6.79537;-0.0815409;21.1423;7.94288;19.4862
235;93.284000000;6.7596;-0.0822681;21.048;7.97865;19.4919
236;93.484000000;6.72353;-0.0831422;20.9542;8.01474;19.4372
237;93.684000000;6.68766;-0.0843919;20.8619;8.05062;19.416
238;93.885000000;6.65174;-0.0856159;20.7695;8.08657;19.377
239;94.084000000;6.61593;-0.0870665;20.6792;8.12241;19.328
240;94.284000000;6.58021;-0.0886075;20.589;8.15816;19.3155
241;94.484000000;6.53835;-0.0904182;20.4841;8.20006;19.2551
242;94.685000000;6.50264;-0.0920724;20.3966;8.23581;19.2791
243;94.884000000;6.46675;-0.0933825;20.3093;8.27173;19.1929
244;95.084000000;6.43672;-0.0944602;20.2362;8.30177;19.146
245;95.284000000;6.40073;-0.095991;20.1501;8.3378;19.1572
246;95.484000000;6.36482;-0.0973864;20.066;8.37373;19.1179
247;95.685000000;6.33509;-0.0983627;19.9963;8.40348;19.0724
248;95.885000000;6.29297;-0.100344;19.8986;8.44565;18.9593
249;96.084000000;6.2572;-0.102576;19.8156;8.48149;18.9636
250;96.284000000;6.2212;-0.104528;19.7343;8.51754;18.9652
251;96.484000000;6.18536;-0.105026;20.3899;8.55339;18.8788
252;96.684000000;6.15095;-0.105144;21.0425;8.58781;18.8825
253;96.884000000;6.10919;-0.106602;20.9431;8.62959;18.7939
254;97.084000000;6.07345;-0.108516;20.8586;8.66538;18.7652
255;97.284000000;6.03667;-0.110415;20.7767;8.70222;18.7358
256;97.484000000;5.99847;-0.110048;21.4066;8.74042;18.6865
257;97.685000000;5.96817;-0.110442;22.0523;8.77073;18.6664
258;97.885000000;5.93197;-0.1122;21.9631;8.80697;18.6387
259;98.084000000;5.89568;-0.114022;21.8738;8.84331;18.5656
260;98.284000000;5.86556;-0.115495;21.8016;8.87347;18.6321
261;98.484000000;5.81704;-0.115607;22.3933;8.92199;18.5252
262;98.685000000;5.78666;-0.114088;22.3207;8.95241;18.4842
263;98.885000000;5.75084;-0.112149;22.2345;8.98829;18.3919
264;99.087000000;5.71508;-0.111202;22.1485;9.02406;18.4457
265;99.285000000;5.67925;-0.110786;22.062;9.05989;18.3683
266;99.484000000;5.64332;-0.110634;21.9754;9.09582;18.2985
267;99.684000000;5.60756;-0.110713;22.5782;9.13158;18.278
268;99.884000000;5.57178;-0.111735;22.4937;9.16738;18.2594
269;100.084000000;5.5302;-0.11431;22.3949;9.20904;18.207
270;100.285000000;5.50028;-0.116672;22.3232;9.23906;18.1401
271;100.484000000;5.46313;-0.119888;22.2361;9.27634;18.0928
272;100.684000000;5.42762;-0.124186;22.1538;9.31211;18.1059
273;100.884000000;5.38568;-0.128877;22.0559;9.35431;18.0478
274;101.084000000;5.35517;-0.132329;21.9862;9.38502;18.0047
275;101.284000000;5.31999;-0.137488;21.906;9.42057;17.9721
276;101.485000000;5.28423;-0.142893;21.8236;9.45675;17.942
277;101.684000000;5.24861;-0.147765;21.7419;9.4927;17.8839
278;101.886000000;5.21387;-0.153208;21.6675;9.52787;17.8839
279;102.085000000;5.17842;-0.160792;21.5906;9.56412;17.7971
280;102.288000000;5.14238;-0.166682;21.5158;9.60064;17.7436
281;102.484000000;5.10732;-0.172318;21.4446;9.63617;17.667
282;102.684000000;5.07225;-0.181217;21.3709;9.67235;17.6672
283;102.884000000;5.03187;-0.192663;21.2797;9.71432;17.6559
284;103.084000000;5.00328;-0.201132;21.2156;9.74414;17.5608
285;103.284000000;4.96338;-0.213552;21.1266;9.78593;17.4696
286;103.485000000;4.93469;-0.22267;21.0626;9.81604;17.4576
287;103.685000000;4.9004;-0.233385;20.9862;9.85196;17.4443
288;103.884000000;4.86644;-0.243881;20.9117;9.88751;17.374
289;104.084000000;4.83225;-0.254881;20.8377;9.92342;17.3552
290;104.285000000;4.79278;-0.268459;20.7525;9.96516;17.3149
291;104.484000000;4.76463;-0.278581;20.6912;9.99508;17.2483
292;104.684000000;4.73082;-0.291059;20.6176;10.0311;17.2478
293;104.885000000;4.6973;-0.303653;20.5446;10.0669;17.22
294;105.085000000;4.66386;-0.316414;20.4728;10.1027;17.1308
295;105.284000000;4.6359;-0.327257;20.4133;10.1327;17.1241
296;105.484000000;4.59653;-0.341922;20.3306;10.1747;17.0675
297;105.684000000;4.56267;-0.354037;20.2598;10.2107;17.0068
298;105.885000000;4.52856;-0.365925;20.1891;10.2468;16.9738
299;106.084000000;4.49475;-0.377783;20.1196;10.2826;16.9484
300;106.284000000;4.461;-0.389976;20.0505;10.3185;16.885
301;106.484000000;4.42718;-0.402374;19.9811;10.3545;16.8767
302;106.687000000;4.39384;-0.414639;19.9137;10.3901;16.8246
303;106.884000000;4.35456;-0.42926;19.8341;10.432;16.7474
304;107.084000000;4.32121;-0.442068;19.7682;10.4677;16.7489
305;107.284000000;4.29324;-0.453106;19.7123;10.4978;16.7269
306;107.484000000;4.26497;-0.463566;19.659;10.5279;16.6312
307;107.684000000;4.22474;-0.477125;19.5817;10.5704;16.6177
308;107.884000000;4.19066;-0.488375;19.5157;10.6063;16.573
309;108.084000000;4.15644;-0.499682;19.4503;10.6423;16.5362
310;108.284000000;4.12224;-0.510727;19.3856;10.6782;16.5329
311;108.484000000;4.08837;-0.522303;19.3231;10.714;16.4378
312;108.684000000;4.05418;-0.534111;19.2594;10.7502;16.4012
313;108.884000000;4.02009;-0.545525;19.1955;10.7862;16.4244
314;109.084000000;3.98015;-0.558604;19.1225;10.8282;16.3554
315;109.284000000;3.94582;-0.569391;19.0594;10.8642;16.3041
316;109.484000000;3.91714;-0.578427;19.0075;10.8942;16.269
317;109.684000000;3.88298;-0.589422;18.9455;10.9301;16.2695
318;109.884000000;3.84866;-0.600365;18.8836;10.9661;16.2188
319;110.085000000;3.82011;-0.60931;18.8332;10.9961;16.1687
320;110.285000000;3.77394;-0.622887;18.753;11.0442;16.1307
321;110.484000000;3.73929;-0.632459;18.6932;11.0801;16.0608
322;110.684000000;3.71632;-0.638926;18.654;11.104;16.0209
323;110.884000000;3.66956;-0.651963;18.5748;11.1526;16.0307
324;111.084000000;3.64042;-0.659461;18.5259;11.1826;15.9617
325;111.284000000;3.60565;-0.668563;18.4674;11.2186;15.9376
326;111.484000000;3.57092;-0.677747;18.4088;11.2545;15.9178
327;111.684000000;3.53618;-0.686675;18.3514;11.2904;15.8871
328;111.884000000;3.50131;-0.695743;18.2938;11.3264;15.8178
329;112.084000000;3.4605;-0.70612;18.2276;11.3685;15.7658
330;112.284000000;3.42558;-0.714522;18.1712;11.4044;15.7871
331;112.485000000;3.39072;-0.723023;18.115;11.4403;15.7104
332;112.685000000;3.35557;-0.731453;18.0585;11.4765;15.6597
333;112.885000000;3.32063;-0.739976;18.0025;11.5124;15.6595
334;113.084000000;3.29134;-0.746995;17.9562;11.5425;15.6103
335;113.284000000;3.26221;-0.753759;17.9104;11.5724;15.5545
336;113.484000000;3.22107;-0.763292;17.8461;11.6147;15.5013
337;113.684000000;3.18582;-0.771309;17.7914;11.6508;15.4976
338;113.884000000;3.15038;-0.778587;17.7388;11.687;15.4449
339;114.084000000;3.11498;-0.785253;17.6847;11.723;15.3931
340;114.284000000;3.0795;-0.791703;17.6312;11.7591;15.3997
341;114.484000000;3.03852;-0.799375;17.57;11.8008;15.3433
342;114.685000000;3.00875;-0.804934;17.5261;11.8311;15.3021
