id;time;x_odom;y_odom;fr_odom;travelled_path;global_plan_length;global_plan_fr
1;732.894000000;12.9995;-1.99988;0.218372;0.000575399;19.5732
2;733.094000000;12.9768;-1.99993;0.394937;0.0232751;19.5732
3;733.294000000;12.9484;-2.00059;0.701351;0.051688;19.6221
4;733.495000000;12.921;-2.00188;0.665478;0.0791136;19.6544
5;733.694000000;12.8951;-2.00298;0.590903;0.10498;19.6544
6;733.895000000;12.8766;-2.00371;0.529567;0.123548;19.673
7;734.094000000;12.8878;-2.00322;0.554796;0.135269;19.673
8;734.294000000;12.9129;-2.00121;0.944762;0.160441;19.673
9;734.494000000;12.9362;-1.99695;1.41746;0.184156;19.6544
10;734.694000000;12.9641;-1.98797;2.00448;0.213476;19.653
11;734.894000000;12.99;-1.97488;2.31556;0.242543;19.5925
12;735.094000000;13.0158;-1.95687;2.61742;0.274038;19.5634
13;735.295000000;13.0349;-1.93907;2.79338;0.300126;19.4805
14;735.494000000;13.0531;-1.91712;2.9235;0.328686;19.4805
15;735.694000000;13.0695;-1.89321;2.87707;0.357688;19.4805
16;735.895000000;13.0877;-1.86295;2.77121;0.393006;19.437
17;736.094000000;13.1071;-1.8258;2.6262;0.434893;19.3846
18;736.295000000;13.1215;-1.79481;2.52048;0.469073;19.3394
19;736.494000000;13.1358;-1.76185;2.35764;0.505028;19.2711
20;736.694000000;13.1498;-1.72893;2.22575;0.540783;19.3031
21;736.894000000;13.1628;-1.69746;2.10623;0.574826;19.2215
22;737.095000000;13.1764;-1.66412;1.98907;0.610856;19.171
23;737.294000000;13.1899;-1.63086;1.88889;0.646718;19.2112
24;737.494000000;13.2027;-1.59851;1.80212;0.681533;19.1127
25;737.694000000;13.2134;-1.57099;1.74572;0.711054;19.0766
26;737.894000000;13.2259;-1.53734;1.67678;0.746947;19.0766
27;738.098000000;13.2378;-1.50363;1.62325;0.782716;19.0372
28;738.294000000;13.251;-1.46435;1.56193;0.824155;18.9956
29;738.494000000;13.2618;-1.43026;1.51457;0.859916;18.9492
30;738.694000000;13.2721;-1.39589;1.47631;0.89579;18.9282
31;738.894000000;13.2818;-1.36153;1.43526;0.931474;18.8704
32;739.094000000;13.2907;-1.32687;1.40747;0.967283;18.8683
33;739.294000000;13.2989;-1.29194;1.38285;1.00315;18.8243
34;739.495000000;13.3059;-1.25708;1.36434;1.03871;18.7638
35;739.694000000;13.3121;-1.22177;1.34231;1.07456;18.7638
36;739.894000000;13.3166;-1.19222;1.32712;1.10445;18.7095
37;740.094000000;13.3208;-1.15705;1.31671;1.13988;18.6704
38;740.294000000;13.3238;-1.12141;1.30489;1.17564;18.6704
39;740.494000000;13.3258;-1.07962;1.29611;1.21748;18.6115
40;740.694000000;13.3261;-1.05006;1.28826;1.24705;18.5655
41;740.894000000;13.3249;-1.01012;1.28233;1.28701;18.4998
42;741.094000000;13.3227;-0.975105;1.27548;1.32209;18.4935
43;741.295000000;13.319;-0.939546;1.27221;1.35785;18.4153
44;741.494000000;13.3138;-0.904484;1.2702;1.39329;18.3755
45;741.694000000;13.3072;-0.869959;1.27063;1.42844;18.3149
46;741.894000000;13.2992;-0.836135;1.27015;1.46322;18.3153
47;742.094000000;13.2895;-0.802054;1.2697;1.49865;18.2737
48;742.294000000;13.2781;-0.768357;1.27366;1.53423;18.2291
49;742.494000000;13.2653;-0.735422;1.26928;1.56958;18.2531
50;742.694000000;13.2518;-0.704268;1.26821;1.60354;18.1859
51;742.894000000;13.239;-0.677609;1.26391;1.6331;18.1131
52;743.094000000;13.2227;-0.645789;1.25373;1.66885;18.1197
53;743.294000000;13.2053;-0.614477;1.24955;1.70467;18.0596
54;743.494000000;13.1875;-0.585215;1.24616;1.73893;18.0295
55;743.694000000;13.1649;-0.55081;1.23887;1.7801;17.9869
56;743.894000000;13.1447;-0.522504;1.23283;1.81488;17.9751
57;744.094000000;13.1231;-0.494244;1.22885;1.85044;17.938
58;744.294000000;13.1004;-0.466857;1.22853;1.88603;17.8859
59;744.494000000;13.0766;-0.440644;1.22784;1.92144;17.8092
60;744.695000000;13.0516;-0.415299;1.22757;1.95701;17.8118
61;744.894000000;13.0256;-0.390959;1.22158;1.9926;17.7476
62;745.094000000;12.9991;-0.367172;1.20987;2.02827;17.7476
63;745.294000000;12.9717;-0.344028;1.2064;2.06409;17.6569
64;745.494000000;12.9447;-0.322806;1.20355;2.09847;17.6598
65;745.694000000;12.9209;-0.305137;1.19516;2.12809;17.5941
66;745.894000000;12.8916;-0.284361;1.18866;2.164;17.5947
67;746.094000000;12.8567;-0.261448;1.18498;2.20576;17.514
68;746.295000000;12.8262;-0.242977;1.17912;2.24144;17.4504
69;746.494000000;12.795;-0.22525;1.17254;2.2773;17.4504
70;746.694000000;12.7635;-0.208375;1.16464;2.31306;17.3834
71;746.894000000;12.7316;-0.192376;1.16057;2.34875;17.3827
72;747.095000000;12.6992;-0.17753;1.15791;2.38437;17.3258
73;747.294000000;12.6662;-0.163738;1.15456;2.42019;17.2513
74;747.494000000;12.6328;-0.151164;1.15352;2.45582;17.2215
75;747.694000000;12.5991;-0.139809;1.1491;2.49144;17.2242
76;747.894000000;12.5647;-0.129269;1.14314;2.52739;17.1531
77;748.094000000;12.5302;-0.119686;1.13731;2.56314;17.1203
78;748.294000000;12.4956;-0.110971;1.13091;2.59885;17.1203
79;748.494000000;12.4605;-0.103038;1.12447;2.63484;17.0547
80;748.694000000;12.4255;-0.0959118;1.11695;2.67059;17.0122
81;748.894000000;12.3903;-0.0894648;1.10914;2.70638;16.9983
82;749.096000000;12.3608;-0.0846123;1.10332;2.73622;16.9475
83;749.295000000;12.3194;-0.0785941;1.09455;2.77805;16.8903
84;749.494000000;12.2839;-0.0741117;1.08577;2.81391;16.8904
85;749.695000000;12.2483;-0.0701129;1.07638;2.84973;16.8486
86;749.894000000;12.2125;-0.0665164;1.06698;2.88562;16.7905
87;750.094000000;12.1768;-0.0633716;1.05853;2.92152;16.7473
88;750.294000000;12.1411;-0.060655;1.0489;2.95734;16.7476
89;750.494000000;12.1052;-0.0582568;1.0395;2.99329;16.6864
90;750.694000000;12.0694;-0.0562397;1.03079;3.02919;16.6473
91;750.894000000;12.0336;-0.0545437;1.02128;3.06499;16.5901
92;751.094000000;11.9976;-0.0531352;1.01202;3.10098;16.5902
93;751.294000000;11.9618;-0.052051;1.00321;3.1368;16.5471
94;751.494000000;11.926;-0.0511968;0.993533;3.1727;16.4868
95;751.694000000;11.896;-0.0506328;0.985908;3.20262;16.4946
96;751.894000000;11.8602;-0.0501791;0.976668;3.23843;16.447
97;752.094000000;11.8182;-0.0498093;0.965198;3.28048;16.3923
98;752.294000000;11.7821;-0.0495944;0.955682;3.31652;16.3957
99;752.494000000;11.7463;-0.0495272;0.946225;3.35237;16.3446
100;752.694000000;11.7103;-0.0494976;2.7907;3.38838;16.2934
101;752.894000000;11.6742;-0.0495621;2.76232;3.42441;16.2474
102;753.094000000;11.6384;-0.0497036;2.7344;3.46027;16.1867
103;753.294000000;11.6024;-0.0501028;2.709;3.49625;16.1918
104;753.494000000;11.5664;-0.0506505;2.68178;3.53223;16.1254
105;753.694000000;11.5305;-0.051179;2.65541;3.56813;16.0734
106;753.894000000;11.4945;-0.051642;2.62916;3.6042;16.0734
107;754.094000000;11.4585;-0.0520844;2.60352;3.64016;16.0339
108;754.294000000;11.4287;-0.0524364;2.58289;3.66995;15.9734
109;754.494000000;11.3927;-0.0527963;2.55805;3.70601;15.9253
110;754.696000000;11.3567;-0.0531575;2.53366;3.74198;15.9339
111;754.895000000;11.3208;-0.0535096;2.50988;3.77787;15.8734
112;755.094000000;11.2786;-0.0538864;2.48229;3.82009;15.8339
113;755.294000000;11.2427;-0.0542388;2.45949;3.85599;15.8253
114;755.494000000;11.2068;-0.0545824;2.43696;3.89192;15.7734
115;755.695000000;11.1707;-0.0548897;2.41493;3.92801;15.7339
116;755.900000000;11.1348;-0.0551879;2.39328;3.96392;15.6736
117;756.094000000;11.0929;-0.0554827;2.36858;4.00583;15.6736
118;756.294000000;11.0628;-0.0556764;2.35108;4.03591;15.6339
119;756.494000000;11.0269;-0.0559235;2.33051;4.07183;15.5736
120;756.694000000;10.997;-0.0560874;2.31385;4.10168;15.5736
121;756.895000000;10.961;-0.0562628;2.29387;4.13774;15.5339
122;757.094000000;10.9251;-0.0564584;2.27423;4.17364;15.4734
123;757.294000000;10.8829;-0.0566347;2.25194;4.21575;15.4339
124;757.494000000;10.8469;-0.0567677;2.23306;4.25177;15.4339
125;757.695000000;10.811;-0.0569204;2.21455;4.28767;15.3736
126;757.894000000;10.775;-0.0570435;2.19623;4.3237;15.3339
127;758.094000000;10.739;-0.0571613;2.17821;4.35968;15.3339
128;758.294000000;10.7031;-0.0572673;2.16066;4.39557;15.2734
129;758.494000000;10.6671;-0.0573172;2.14337;4.43164;15.2339
130;758.694000000;10.6311;-0.0573558;2.12616;4.46764;15.1736
131;758.894000000;10.5952;-0.0573835;2.1094;4.50354;15.1736
132;759.094000000;10.5591;-0.0573818;3.47678;4.53961;15.1339
133;759.294000000;10.5231;-0.0573907;4.82271;4.57559;15.0734
134;759.494000000;10.4872;-0.0573964;6.14781;4.61149;15.0736
135;759.694000000;10.4511;-0.0573693;6.10016;4.64758;15.0339
136;759.894000000;10.4152;-0.0573435;6.05343;4.68354;14.9736
137;760.094000000;10.3792;-0.0573092;6.00748;4.71946;14.9339
138;760.294000000;10.3431;-0.0572524;5.96198;4.75555;14.9339
139;760.494000000;10.3072;-0.0572074;5.91745;4.79146;14.8734
140;760.694000000;10.2713;-0.0571507;5.87351;4.82741;14.8339
141;760.894000000;10.2352;-0.0570747;5.83004;4.8635;14.8339
142;761.094000000;10.1993;-0.0570185;5.78754;4.89939;14.7734
143;761.295000000;10.1633;-0.0569311;5.74557;4.93536;14.734
144;761.494000000;10.1273;-0.0568259;5.70401;4.97143;14.6734
145;761.694000000;10.0914;-0.0567388;5.66332;5.0073;14.6734
146;761.894000000;10.0554;-0.0566284;5.62304;5.0433;14.634
147;762.094000000;10.0193;-0.0565044;5.58327;5.07935;14.5736
148;762.294000000;9.98958;-0.056419;5.55089;5.10912;14.534
149;762.494000000;9.94745;-0.0562665;5.50567;5.15124;14.534
150;762.694000000;9.91142;-0.0561245;5.46757;5.18728;14.4875
151;762.894000000;9.87556;-0.0559948;5.43023;5.22314;14.4401
152;763.094000000;9.83951;-0.0558248;5.39315;5.25919;14.4402
153;763.294000000;9.8035;-0.055653;5.35663;5.2952;14.3875
154;763.494000000;9.76765;-0.0554917;5.32076;5.33105;14.3402
155;763.694000000;9.73772;-0.0553269;5.29117;5.36098;14.2876
156;763.894000000;9.7017;-0.0551278;5.25601;5.397;14.2875
157;764.094000000;9.66585;-0.054943;5.22152;5.43285;14.2415
158;764.294000000;9.62365;-0.0546769;5.1814;5.47505;14.1833
159;764.494000000;9.58771;-0.0544604;5.14778;5.51099;14.1832
160;764.694000000;9.55183;-0.0542377;5.11465;5.54688;14.1415
161;764.894000000;9.51573;-0.0539917;5.08173;5.58297;14.0876
162;765.094000000;9.47984;-0.0538033;5.04962;5.61886;14.0415
163;765.294000000;9.44391;-0.0536158;5.01768;5.6548;14.0415
164;765.494000000;9.40782;-0.0534054;4.98601;5.69089;13.9876
165;765.694000000;9.37804;-0.0532679;4.96028;5.72067;13.9374
166;765.894000000;9.34212;-0.0530939;4.92948;5.75659;13.8909
167;766.094000000;9.29992;-0.0528765;4.8938;5.79879;13.8833
168;766.294000000;9.26406;-0.0527398;4.8639;5.83465;13.8297
169;766.494000000;9.22807;-0.0525814;4.83416;5.87063;13.7981
170;766.694000000;9.19202;-0.0524571;4.80503;5.90669;13.7853
171;766.894000000;9.15616;-0.0523892;4.77617;5.94255;13.7297
172;767.097000000;9.12015;-0.0522975;4.74751;5.97856;13.691
173;767.295000000;9.0841;-0.0521974;4.71918;6.0146;13.6299
174;767.495000000;9.04825;-0.0521157;4.69134;6.05046;13.6417
175;767.694000000;9.01221;-0.0520077;4.66366;6.0865;13.5853
176;767.894000000;8.98229;-0.0519324;4.64116;6.11641;13.5505
177;768.094000000;8.94644;-0.0518944;4.61423;6.15227;13.4854
178;768.294000000;8.90427;-0.0518185;4.58293;6.19444;13.491
179;768.494000000;8.86827;-0.0517557;4.55659;6.23044;13.4417
180;768.694000000;8.83241;-0.0517009;4.53062;6.2663;13.3835
181;768.895000000;8.79632;-0.0516196;4.50475;6.30238;13.3835
182;769.094000000;8.76036;-0.0515502;4.47933;6.33835;13.3418
183;769.294000000;8.72448;-0.0514804;4.45422;6.37423;13.2907
184;769.494000000;8.68839;-0.0513942;4.42925;6.41032;13.248
185;769.694000000;8.65248;-0.0513476;4.40478;6.44623;13.2512
186;769.894000000;8.61655;-0.0512989;4.38046;6.48216;13.1937
187;770.094000000;8.58044;-0.0512292;4.35628;6.51827;13.144
188;770.294000000;8.54456;-0.0511954;4.33265;6.55415;13.0856
189;770.495000000;8.50861;-0.0511526;4.3091;6.5901;13.0949
190;770.694000000;8.47252;-0.051093;4.28574;6.62619;13.0418
191;770.894000000;8.4428;-0.0511112;5.21084;6.65591;12.9976
192;771.094000000;8.40692;-0.0513389;5.18389;6.69179;12.981
193;771.294000000;8.37084;-0.0518141;5.15711;6.72788;12.9424
194;771.494000000;8.33508;-0.0525606;5.13096;6.76364;12.8981
195;771.694000000;8.29911;-0.0533844;5.1043;6.79962;12.8424
196;771.894000000;8.26306;-0.0540914;5.07769;6.83567;12.8515
197;772.094000000;8.22108;-0.0549645;5.04712;6.87767;12.7849
198;772.297000000;8.18505;-0.055675;5.02132;6.91371;12.7432
199;772.494000000;8.14908;-0.0563933;4.99568;6.94969;12.6835
200;772.694000000;8.11327;-0.0571875;4.97061;6.98551;12.6831
201;772.894000000;8.07719;-0.0578823;4.94558;7.02159;12.6457
202;773.094000000;8.0412;-0.0584954;4.92062;7.05758;12.597
203;773.294000000;8.00532;-0.0590733;4.89616;7.09346;12.5453
204;773.494000000;7.96924;-0.0596418;4.87175;7.12955;12.5449
205;773.695000000;7.93325;-0.0602076;4.84784;7.16554;12.4875
206;773.894000000;7.90346;-0.0606968;4.82817;7.19535;12.4328
207;774.094000000;7.86737;-0.0611595;4.8045;7.23144;12.4503
208;774.294000000;7.83142;-0.061541;4.7809;7.26739;12.3782
209;774.496000000;7.78939;-0.061922;4.75389;7.30942;12.3491
210;774.695000000;7.7532;-0.061995;5.58655;7.34561;12.2902
211;774.894000000;7.71724;-0.061947;5.55948;7.38157;12.2902
212;775.094000000;7.68128;-0.0618384;5.53288;7.41753;12.2315
213;775.294000000;7.64522;-0.0615996;5.50658;7.45359;12.2093
214;775.494000000;7.60928;-0.0612744;5.48046;7.48953;12.1591
215;775.695000000;7.57331;-0.0608851;5.4544;7.52551;12.1382
216;775.894000000;7.54335;-0.0605432;5.43283;7.55546;12.0937
217;776.094000000;7.5075;-0.060155;5.40734;7.59132;12.0399
218;776.294000000;7.47154;-0.0597405;5.38195;7.62727;12.0365
219;776.494000000;7.42935;-0.0591824;5.3526;7.66947;12.0076
220;776.694000000;7.39354;-0.0587033;5.32789;7.70528;11.9583
221;776.894000000;7.35754;-0.0582382;5.30338;7.74129;11.8948
222;777.094000000;7.32163;-0.0577589;5.27928;7.77721;11.8887
223;777.294000000;7.28826;-0.0574172;5.25725;7.81058;11.8358
224;777.494000000;7.25225;-0.0570205;5.23319;7.84659;11.7919
225;777.695000000;7.21621;-0.0566423;5.2095;7.88262;11.7873
226;777.894000000;7.18039;-0.0563079;5.18608;7.91845;11.7277
227;778.095000000;7.14435;-0.0559794;5.16271;7.95449;11.6792
228;778.294000000;7.10834;-0.0556693;5.13965;7.9905;11.6324
229;778.494000000;7.07861;-0.0554394;5.12069;8.02023;11.6324
230;778.694000000;7.03643;-0.0550767;5.09399;8.06241;11.573
231;778.894000000;7.00046;-0.0548129;5.07155;8.09838;11.5335
232;779.094000000;6.96462;-0.0545534;5.0493;8.13423;11.5279
233;779.294000000;6.92853;-0.0542868;5.02712;8.17031;11.4914
234;779.494000000;6.89261;-0.0540959;5.00536;8.20623;11.4477
235;779.694000000;6.85672;-0.0539061;4.98366;8.24213;11.3824
236;779.894000000;6.82062;-0.053694;4.96203;8.27823;11.3811
237;780.094000000;6.78481;-0.053604;5.69685;8.31404;11.3304
238;780.296000000;6.74891;-0.0537112;5.67269;8.34994;11.2886
239;780.494000000;6.71894;-0.0538254;5.65286;8.37991;11.2225
240;780.694000000;6.68318;-0.0541221;5.62928;8.41567;11.2285
241;780.894000000;6.64122;-0.0547537;5.60245;8.45763;11.1775
242;781.094000000;6.60519;-0.0555152;5.57906;8.49368;11.1316
243;781.294000000;6.56934;-0.0563738;5.55575;8.52954;11.1408
244;781.494000000;6.53336;-0.0572274;5.53246;8.56553;11.0835
245;781.695000000;6.49734;-0.0580732;5.50942;8.60155;11.0358
246;781.894000000;6.46147;-0.0589653;5.48661;8.63743;10.9762
247;782.094000000;6.42546;-0.0598426;5.46391;8.67346;10.9802
248;782.294000000;6.39556;-0.0605356;5.44529;8.70336;10.9377
249;782.494000000;6.35969;-0.0613832;5.42299;8.73924;10.8972
250;782.694000000;6.32502;-0.0621615;5.40183;8.77392;10.8141
251;782.895000000;6.28297;-0.0631874;5.37684;8.81599;10.8141
252;783.094000000;6.24716;-0.0642894;5.35562;8.85181;10.7801
253;783.295000000;6.21114;-0.0655537;5.33437;8.88786;10.7408
254;783.495000000;6.1752;-0.0669813;5.31344;8.92382;10.7349
255;783.694000000;6.14095;-0.0685257;5.29376;8.95811;10.6942
256;783.894000000;6.10502;-0.0705274;5.27433;8.99409;10.6236
257;784.094000000;6.0692;-0.0729988;5.25434;9.03;10.6059
258;784.295000000;6.03345;-0.07566;5.23385;9.06584;10.5949
259;784.499000000;5.99745;-0.0784187;5.21335;9.10195;10.5398
260;784.694000000;5.95574;-0.0816601;5.1897;9.14379;10.5039
261;784.895000000;5.92582;-0.0839193;5.17301;9.17379;10.4522
262;785.094000000;5.89588;-0.0860816;5.1566;9.20381;10.4643
263;785.294000000;5.85997;-0.0885218;5.13693;9.23981;10.4083
264;785.494000000;5.82412;-0.0907801;5.11772;9.27573;10.3486
265;785.695000000;5.78801;-0.0928305;5.09845;9.31189;10.3587
266;785.894000000;5.75214;-0.0947247;5.07915;9.34782;10.3014
267;786.094000000;5.71012;-0.0967658;5.05701;9.38988;10.261
268;786.294000000;5.67402;-0.0983365;5.03797;9.42602;10.2191
269;786.494000000;5.6382;-0.0998156;5.01916;9.46187;10.1984
270;786.694000000;5.60222;-0.101168;5.00056;9.49787;10.1326
271;786.894000000;5.56617;-0.10237;4.98198;9.53395;10.0829
272;787.094000000;5.53029;-0.10349;4.9636;9.56984;10.0271
273;787.294000000;5.49426;-0.104467;4.9454;9.60588;10.0315
274;787.494000000;5.45825;-0.105333;4.92712;9.64191;9.97706
275;787.694000000;5.42237;-0.106151;4.90907;9.67779;9.92783
276;787.894000000;5.38631;-0.106853;4.89117;9.71386;9.93395
277;788.094000000;5.35036;-0.107482;4.87325;9.74982;9.88224
278;788.294000000;5.32058;-0.107967;4.85863;9.7796;9.82012
279;788.497000000;5.28454;-0.108469;4.84099;9.81565;9.7748
280;788.694000000;5.24243;-0.10896;4.82053;9.85776;9.77826
281;788.895000000;5.20653;-0.109306;4.80335;9.89366;9.7288
282;789.095000000;5.17044;-0.109552;4.78605;9.92976;9.67877
283;789.299000000;5.13449;-0.1098;4.76887;9.9657;9.67336
284;789.495000000;5.09263;-0.110026;4.7492;10.0076;9.62772
285;789.695000000;5.06247;-0.110117;4.73511;10.0377;9.57843
286;789.895000000;5.02666;-0.110283;4.71889;10.0735;9.53001
287;790.094000000;4.99083;-0.110715;4.70289;10.1094;9.52402
288;790.294000000;4.96089;-0.11128;4.6897;10.1393;9.47507
289;790.494000000;4.91896;-0.112434;4.67126;10.1813;9.42039
290;790.695000000;4.88307;-0.113672;4.65535;10.2172;9.37145
291;790.895000000;4.84716;-0.115077;4.63943;10.2531;9.37145
292;791.095000000;4.81282;-0.116527;4.62461;10.2875;9.59674
293;791.294000000;4.77868;-0.118347;4.61048;10.3217;9.59505
294;791.494000000;4.74278;-0.120527;4.59513;10.3576;9.59657
295;791.694000000;4.7083;-0.122944;4.58076;10.3922;9.57322
296;791.894000000;4.67251;-0.125781;4.56567;10.4281;9.78648
297;792.094000000;4.6426;-0.128245;4.55279;10.4581;9.77469
298;792.294000000;4.60691;-0.131354;4.53777;10.4939;9.79636
299;792.494000000;4.56637;-0.135112;4.52079;10.5347;9.73622
300;792.694000000;4.53046;-0.138562;4.50554;10.5707;9.74106
301;792.894000000;4.49561;-0.142111;4.49162;10.6058;9.73406
302;793.095000000;4.4599;-0.146148;4.47738;10.6417;9.68754
303;793.294000000;4.42397;-0.150421;4.46267;10.6779;9.64039
304;793.494000000;4.38964;-0.154471;4.44886;10.7124;9.68193
305;793.694000000;4.35392;-0.158899;4.43452;10.7484;9.65282
306;793.894000000;4.31811;-0.163504;4.41994;10.7845;9.64623
307;794.094000000;4.28263;-0.168155;4.40549;10.8203;9.5774
308;794.295000000;4.24689;-0.172871;4.39089;10.8564;9.57636
309;794.494000000;4.21119;-0.177544;4.37659;10.8924;9.54642
310;794.694000000;4.17654;-0.182027;4.36279;10.9273;9.52592
311;794.894000000;4.14074;-0.186621;4.34862;10.9634;9.52532
312;795.094000000;4.10485;-0.191083;4.33495;10.9996;9.47948
313;795.294000000;4.0753;-0.194593;4.3235;11.0293;9.40668
314;795.494000000;4.03946;-0.198766;4.30962;11.0654;9.36766
315;795.694000000;3.99764;-0.203464;4.29378;11.1075;9.38263
316;795.894000000;3.96192;-0.207191;4.28063;11.1434;9.37471
317;796.094000000;3.92593;-0.210779;4.26715;11.1796;9.27438
318;796.294000000;3.89017;-0.214209;4.25375;11.2155;9.26937
319;796.494000000;3.85443;-0.217641;4.24052;11.2514;9.23722
320;796.694000000;3.81845;-0.221118;4.22709;11.2876;9.17652
321;796.894000000;3.78273;-0.224559;4.21381;11.3234;9.13224
322;797.094000000;3.74693;-0.227926;4.20084;11.3594;9.16765
323;797.294000000;3.71087;-0.231164;4.18788;11.3956;9.07903
324;797.495000000;3.6751;-0.234122;4.17583;11.4315;8.72013
325;797.694000000;3.63907;-0.236487;4.16425;11.4676;8.72636
326;797.894000000;3.60288;-0.238253;4.15245;11.5038;8.64598
327;798.094000000;3.5671;-0.2395;4.14081;11.5396;8.61327
328;798.295000000;3.5386;-0.240981;4.13428;11.5682;8.53024
329;798.494000000;3.50345;-0.243626;4.12285;11.6034;8.52694
330;798.695000000;3.46192;-0.245935;4.11095;11.645;8.4546
331;798.895000000;3.42759;-0.246568;4.10187;11.6794;8.40153
332;799.094000000;3.39164;-0.246029;4.62744;11.7153;8.51903
